   time (s)   m_dot_g (kg/m2/s)  m_dot_c (kg/m2/s)  Virgin 98%     Char 2%    recession (m) 
 0.00000E+00     0.00000E+00       0.00000E+00     0.00000E+00   0.00000E+00  0.00000E+00
 0.10000E+00     0.28199E-02       0.37943E-01     0.15504E-04   0.10423E-04  0.10423E-04
 0.20000E+00     0.10840E-01       0.42646E-01     0.18381E-03   0.25488E-04  0.25488E-04
 0.30000E+00     0.18035E-01       0.42038E-01     0.32089E-03   0.41417E-04  0.41417E-04
 0.40000E+00     0.22927E-01       0.41216E-01     0.44311E-03   0.57598E-04  0.57598E-04
 0.50000E+00     0.25599E-01       0.40712E-01     0.55517E-03   0.73975E-04  0.73975E-04
 0.60000E+00     0.26989E-01       0.40475E-01     0.66037E-03   0.90556E-04  0.90556E-04
 0.70000E+00     0.27696E-01       0.40366E-01     0.75929E-03   0.10732E-03  0.10732E-03
 0.80000E+00     0.27981E-01       0.40359E-01     0.85378E-03   0.12425E-03  0.12425E-03
 0.90000E+00     0.28031E-01       0.40381E-01     0.94462E-03   0.14134E-03  0.14134E-03
 0.10000E+01     0.27932E-01       0.40439E-01     0.10317E-02   0.15857E-03  0.15857E-03
 0.11000E+01     0.27737E-01       0.40522E-01     0.11159E-02   0.17593E-03  0.17593E-03
 0.12000E+01     0.27489E-01       0.40609E-01     0.11975E-02   0.19341E-03  0.19341E-03
 0.13000E+01     0.27209E-01       0.40699E-01     0.12758E-02   0.21099E-03  0.21099E-03
 0.14000E+01     0.26914E-01       0.40792E-01     0.13539E-02   0.22867E-03  0.22867E-03
 0.15000E+01     0.26607E-01       0.40887E-01     0.14286E-02   0.24644E-03  0.24644E-03
 0.16000E+01     0.26300E-01       0.40983E-01     0.15016E-02   0.26430E-03  0.26430E-03
 0.17000E+01     0.25996E-01       0.41074E-01     0.15740E-02   0.28223E-03  0.28223E-03
 0.18000E+01     0.25697E-01       0.41162E-01     0.16445E-02   0.30024E-03  0.30024E-03
 0.19000E+01     0.25406E-01       0.41249E-01     0.17135E-02   0.31832E-03  0.31832E-03
 0.20000E+01     0.25121E-01       0.41332E-01     0.17810E-02   0.33646E-03  0.33646E-03
 0.21000E+01     0.24718E-01       0.41448E-01     0.18483E-02   0.35468E-03  0.35468E-03
 0.22000E+01     0.24510E-01       0.41510E-01     0.19157E-02   0.37297E-03  0.37297E-03
 0.23000E+01     0.24287E-01       0.41576E-01     0.19808E-02   0.39131E-03  0.39131E-03
 0.24000E+01     0.24040E-01       0.41648E-01     0.20453E-02   0.40969E-03  0.40969E-03
 0.25000E+01     0.23793E-01       0.41719E-01     0.21090E-02   0.42813E-03  0.42813E-03
 0.26000E+01     0.23564E-01       0.41785E-01     0.21704E-02   0.44660E-03  0.44660E-03
 0.27000E+01     0.23340E-01       0.41849E-01     0.22305E-02   0.46512E-03  0.46512E-03
 0.28000E+01     0.23127E-01       0.41910E-01     0.22912E-02   0.48368E-03  0.48368E-03
 0.29000E+01     0.22839E-01       0.41992E-01     0.23486E-02   0.50229E-03  0.50229E-03
 0.30000E+01     0.22646E-01       0.42047E-01     0.24079E-02   0.52093E-03  0.52093E-03
 0.31000E+01     0.22455E-01       0.42102E-01     0.24646E-02   0.53961E-03  0.53961E-03
 0.32000E+01     0.22278E-01       0.42152E-01     0.25213E-02   0.55832E-03  0.55832E-03
 0.33000E+01     0.22106E-01       0.42201E-01     0.25773E-02   0.57706E-03  0.57706E-03
 0.34000E+01     0.21936E-01       0.42250E-01     0.26322E-02   0.59583E-03  0.59583E-03
 0.35000E+01     0.21775E-01       0.42295E-01     0.26870E-02   0.61463E-03  0.61463E-03
 0.36000E+01     0.21617E-01       0.42341E-01     0.27410E-02   0.63345E-03  0.63345E-03
 0.37000E+01     0.21455E-01       0.42387E-01     0.27941E-02   0.65231E-03  0.65231E-03
 0.38000E+01     0.21308E-01       0.42429E-01     0.28479E-02   0.67119E-03  0.67119E-03
 0.39000E+01     0.21161E-01       0.42471E-01     0.28985E-02   0.69009E-03  0.69009E-03
 0.40000E+01     0.21018E-01       0.42511E-01     0.29526E-02   0.70902E-03  0.70902E-03
 0.41000E+01     0.20887E-01       0.42549E-01     0.30025E-02   0.72797E-03  0.72797E-03
 0.42000E+01     0.20760E-01       0.42584E-01     0.30547E-02   0.74695E-03  0.74695E-03
 0.43000E+01     0.20632E-01       0.42621E-01     0.31055E-02   0.76594E-03  0.76594E-03
 0.44000E+01     0.20506E-01       0.42657E-01     0.31535E-02   0.78496E-03  0.78496E-03
 0.45000E+01     0.20384E-01       0.42691E-01     0.32059E-02   0.80399E-03  0.80399E-03
 0.46000E+01     0.20268E-01       0.42724E-01     0.32546E-02   0.82305E-03  0.82305E-03
 0.47000E+01     0.20157E-01       0.42756E-01     0.33025E-02   0.84212E-03  0.84212E-03
 0.48000E+01     0.20041E-01       0.42788E-01     0.33532E-02   0.86121E-03  0.86121E-03
 0.49000E+01     0.19933E-01       0.42819E-01     0.34007E-02   0.88033E-03  0.88033E-03
 0.50000E+01     0.19825E-01       0.42850E-01     0.34474E-02   0.89945E-03  0.89945E-03
 0.51000E+01     0.19724E-01       0.42878E-01     0.34972E-02   0.91860E-03  0.91860E-03
 0.52000E+01     0.19626E-01       0.42906E-01     0.35440E-02   0.93776E-03  0.93776E-03
 0.53000E+01     0.19525E-01       0.42935E-01     0.35885E-02   0.95694E-03  0.95694E-03
 0.54000E+01     0.19429E-01       0.42962E-01     0.36379E-02   0.97613E-03  0.97613E-03
 0.55000E+01     0.19335E-01       0.42988E-01     0.36846E-02   0.99534E-03  0.99534E-03
 0.56000E+01     0.19247E-01       0.43013E-01     0.37289E-02   0.10146E-02  0.10146E-02
 0.57000E+01     0.19157E-01       0.43039E-01     0.37752E-02   0.10338E-02  0.10338E-02
 0.58000E+01     0.19071E-01       0.43063E-01     0.38222E-02   0.10531E-02  0.10531E-02
 0.59000E+01     0.18988E-01       0.43086E-01     0.38669E-02   0.10723E-02  0.10723E-02
 0.60000E+01     0.18903E-01       0.43111E-01     0.39096E-02   0.10916E-02  0.10916E-02
 0.61000E+01     0.18822E-01       0.43134E-01     0.39562E-02   0.11109E-02  0.11109E-02
 0.62000E+01     0.18742E-01       0.43156E-01     0.40017E-02   0.11302E-02  0.11302E-02
 0.63000E+01     0.18666E-01       0.43178E-01     0.40451E-02   0.11495E-02  0.11495E-02
 0.64000E+01     0.18588E-01       0.43200E-01     0.40868E-02   0.11688E-02  0.11688E-02
 0.65000E+01     0.18516E-01       0.43220E-01     0.41324E-02   0.11882E-02  0.11882E-02
 0.66000E+01     0.18441E-01       0.43242E-01     0.41771E-02   0.12075E-02  0.12075E-02
 0.67000E+01     0.18369E-01       0.43262E-01     0.42199E-02   0.12269E-02  0.12269E-02
 0.68000E+01     0.18301E-01       0.43281E-01     0.42610E-02   0.12463E-02  0.12463E-02
 0.69000E+01     0.18232E-01       0.43301E-01     0.43040E-02   0.12656E-02  0.12656E-02
 0.70000E+01     0.18163E-01       0.43320E-01     0.43485E-02   0.12850E-02  0.12850E-02
 0.71000E+01     0.18098E-01       0.43339E-01     0.43911E-02   0.13044E-02  0.13044E-02
 0.72000E+01     0.18044E-01       0.43354E-01     0.44323E-02   0.13238E-02  0.13238E-02
 0.73000E+01     0.17953E-01       0.43379E-01     0.44719E-02   0.13433E-02  0.13433E-02
 0.74000E+01     0.17870E-01       0.43402E-01     0.45159E-02   0.13627E-02  0.13627E-02
 0.75000E+01     0.17793E-01       0.43424E-01     0.45589E-02   0.13822E-02  0.13822E-02
 0.76000E+01     0.17722E-01       0.43444E-01     0.46003E-02   0.14016E-02  0.14016E-02
 0.77000E+01     0.17657E-01       0.43462E-01     0.46403E-02   0.14211E-02  0.14211E-02
 0.78000E+01     0.17601E-01       0.43478E-01     0.46790E-02   0.14406E-02  0.14406E-02
 0.79000E+01     0.17537E-01       0.43496E-01     0.47220E-02   0.14601E-02  0.14601E-02
 0.80000E+01     0.17477E-01       0.43513E-01     0.47641E-02   0.14796E-02  0.14796E-02
 0.81000E+01     0.17422E-01       0.43528E-01     0.48048E-02   0.14991E-02  0.14991E-02
 0.82000E+01     0.17364E-01       0.43545E-01     0.48442E-02   0.15186E-02  0.15186E-02
 0.83000E+01     0.17313E-01       0.43559E-01     0.48824E-02   0.15381E-02  0.15381E-02
 0.84000E+01     0.17262E-01       0.43574E-01     0.49225E-02   0.15577E-02  0.15577E-02
 0.85000E+01     0.17215E-01       0.43587E-01     0.49643E-02   0.15772E-02  0.15772E-02
 0.86000E+01     0.17163E-01       0.43602E-01     0.50048E-02   0.15967E-02  0.15967E-02
 0.87000E+01     0.17115E-01       0.43615E-01     0.50440E-02   0.16163E-02  0.16163E-02
 0.88000E+01     0.17069E-01       0.43628E-01     0.50821E-02   0.16359E-02  0.16359E-02
 0.89000E+01     0.17021E-01       0.43642E-01     0.51192E-02   0.16554E-02  0.16554E-02
 0.90000E+01     0.16977E-01       0.43654E-01     0.51592E-02   0.16750E-02  0.16750E-02
 0.91000E+01     0.16935E-01       0.43666E-01     0.51999E-02   0.16946E-02  0.16946E-02
 0.92000E+01     0.16894E-01       0.43678E-01     0.52394E-02   0.17142E-02  0.17142E-02
 0.93000E+01     0.16845E-01       0.43691E-01     0.52778E-02   0.17338E-02  0.17338E-02
 0.94000E+01     0.16801E-01       0.43704E-01     0.53152E-02   0.17534E-02  0.17534E-02
 0.95000E+01     0.16761E-01       0.43715E-01     0.53516E-02   0.17730E-02  0.17730E-02
 0.96000E+01     0.16720E-01       0.43727E-01     0.53894E-02   0.17926E-02  0.17926E-02
 0.97000E+01     0.16675E-01       0.43739E-01     0.54295E-02   0.18122E-02  0.18122E-02
 0.98000E+01     0.16640E-01       0.43749E-01     0.54686E-02   0.18318E-02  0.18318E-02
 0.99000E+01     0.16603E-01       0.43760E-01     0.55066E-02   0.18515E-02  0.18515E-02
 0.10000E+02     0.16566E-01       0.43770E-01     0.55436E-02   0.18711E-02  0.18711E-02
 0.10100E+02     0.16524E-01       0.43782E-01     0.55798E-02   0.18908E-02  0.18908E-02
 0.10200E+02     0.16486E-01       0.43793E-01     0.56152E-02   0.19104E-02  0.19104E-02
 0.10300E+02     0.16448E-01       0.43804E-01     0.56531E-02   0.19301E-02  0.19301E-02
 0.10400E+02     0.16412E-01       0.43814E-01     0.56921E-02   0.19497E-02  0.19497E-02
 0.10500E+02     0.16373E-01       0.43825E-01     0.57302E-02   0.19694E-02  0.19694E-02
 0.10600E+02     0.16334E-01       0.43836E-01     0.57673E-02   0.19891E-02  0.19891E-02
 0.10700E+02     0.16305E-01       0.43844E-01     0.58036E-02   0.20088E-02  0.20088E-02
 0.10800E+02     0.16270E-01       0.43854E-01     0.58392E-02   0.20284E-02  0.20284E-02
 0.10900E+02     0.16239E-01       0.43863E-01     0.58739E-02   0.20481E-02  0.20481E-02
 0.11000E+02     0.16203E-01       0.43873E-01     0.59094E-02   0.20678E-02  0.20678E-02
 0.11100E+02     0.16168E-01       0.43883E-01     0.59479E-02   0.20875E-02  0.20875E-02
 0.11200E+02     0.16135E-01       0.43892E-01     0.59856E-02   0.21072E-02  0.21072E-02
 0.11300E+02     0.16105E-01       0.43901E-01     0.60223E-02   0.21269E-02  0.21269E-02
 0.11400E+02     0.16072E-01       0.43910E-01     0.60583E-02   0.21466E-02  0.21466E-02
 0.11500E+02     0.16037E-01       0.43920E-01     0.60935E-02   0.21664E-02  0.21664E-02
 0.11600E+02     0.16009E-01       0.43928E-01     0.61281E-02   0.21861E-02  0.21861E-02
 0.11700E+02     0.15980E-01       0.43936E-01     0.61620E-02   0.22058E-02  0.22058E-02
 0.11800E+02     0.15949E-01       0.43944E-01     0.61970E-02   0.22256E-02  0.22256E-02
 0.11900E+02     0.15922E-01       0.43952E-01     0.62346E-02   0.22453E-02  0.22453E-02
 0.12000E+02     0.15889E-01       0.43962E-01     0.62714E-02   0.22650E-02  0.22650E-02
 0.12100E+02     0.15858E-01       0.43970E-01     0.63074E-02   0.22848E-02  0.22848E-02
 0.12200E+02     0.15828E-01       0.43979E-01     0.63427E-02   0.23045E-02  0.23045E-02
 0.12300E+02     0.15799E-01       0.43987E-01     0.63774E-02   0.23243E-02  0.23243E-02
 0.12400E+02     0.15773E-01       0.43994E-01     0.64114E-02   0.23440E-02  0.23440E-02
 0.12500E+02     0.15741E-01       0.44003E-01     0.64448E-02   0.23638E-02  0.23638E-02
 0.12600E+02     0.15710E-01       0.44012E-01     0.64777E-02   0.23836E-02  0.23836E-02
 0.12700E+02     0.15687E-01       0.44019E-01     0.65137E-02   0.24033E-02  0.24033E-02
 0.12800E+02     0.15660E-01       0.44026E-01     0.65502E-02   0.24231E-02  0.24231E-02
 0.12900E+02     0.15634E-01       0.44033E-01     0.65859E-02   0.24429E-02  0.24429E-02
 0.13000E+02     0.15609E-01       0.44040E-01     0.66210E-02   0.24627E-02  0.24627E-02
 0.13100E+02     0.15579E-01       0.44049E-01     0.66554E-02   0.24825E-02  0.24825E-02
 0.13200E+02     0.15553E-01       0.44056E-01     0.66893E-02   0.25023E-02  0.25023E-02
 0.13300E+02     0.15525E-01       0.44064E-01     0.67226E-02   0.25221E-02  0.25221E-02
 0.13400E+02     0.15500E-01       0.44071E-01     0.67553E-02   0.25419E-02  0.25419E-02
 0.13500E+02     0.15477E-01       0.44077E-01     0.67876E-02   0.25617E-02  0.25617E-02
 0.13600E+02     0.15452E-01       0.44085E-01     0.68217E-02   0.25815E-02  0.25815E-02
 0.13700E+02     0.15426E-01       0.44092E-01     0.68575E-02   0.26013E-02  0.26013E-02
 0.13800E+02     0.15398E-01       0.44100E-01     0.68927E-02   0.26211E-02  0.26211E-02
 0.13900E+02     0.15663E-01       0.44027E-01     0.69272E-02   0.26409E-02  0.26409E-02
 0.14000E+02     0.15648E-01       0.44030E-01     0.69612E-02   0.26607E-02  0.26607E-02
 0.14100E+02     0.15624E-01       0.44038E-01     0.69946E-02   0.26805E-02  0.26805E-02
 0.14200E+02     0.15600E-01       0.44045E-01     0.70276E-02   0.27003E-02  0.27003E-02
 0.14300E+02     0.15578E-01       0.44051E-01     0.70600E-02   0.27201E-02  0.27201E-02
 0.14400E+02     0.15552E-01       0.44058E-01     0.70920E-02   0.27399E-02  0.27399E-02
 0.14500E+02     0.15528E-01       0.44065E-01     0.71236E-02   0.27597E-02  0.27597E-02
 0.14600E+02     0.15503E-01       0.44072E-01     0.71569E-02   0.27795E-02  0.27795E-02
 0.14700E+02     0.15481E-01       0.44078E-01     0.71919E-02   0.27993E-02  0.27993E-02
 0.14800E+02     0.15458E-01       0.44085E-01     0.72264E-02   0.28191E-02  0.28191E-02
 0.14900E+02     0.15435E-01       0.44091E-01     0.72604E-02   0.28389E-02  0.28389E-02
 0.15000E+02     0.15411E-01       0.44098E-01     0.72938E-02   0.28587E-02  0.28587E-02
 0.15100E+02     0.15385E-01       0.44105E-01     0.73268E-02   0.28786E-02  0.28786E-02
 0.15200E+02     0.15359E-01       0.44112E-01     0.73592E-02   0.28984E-02  0.28984E-02
 0.15300E+02     0.15340E-01       0.44118E-01     0.73913E-02   0.29182E-02  0.29182E-02
 0.15400E+02     0.15320E-01       0.44124E-01     0.74229E-02   0.29381E-02  0.29381E-02
 0.15500E+02     0.15299E-01       0.44129E-01     0.74541E-02   0.29579E-02  0.29579E-02
 0.15600E+02     0.15277E-01       0.44135E-01     0.74849E-02   0.29777E-02  0.29777E-02
 0.15700E+02     0.15257E-01       0.44141E-01     0.75182E-02   0.29976E-02  0.29976E-02
 0.15800E+02     0.15234E-01       0.44148E-01     0.75524E-02   0.30174E-02  0.30174E-02
 0.15900E+02     0.15213E-01       0.44154E-01     0.75861E-02   0.30373E-02  0.30373E-02
 0.16000E+02     0.15190E-01       0.44160E-01     0.76194E-02   0.30571E-02  0.30571E-02
 0.16100E+02     0.15171E-01       0.44166E-01     0.76521E-02   0.30770E-02  0.30770E-02
 0.16200E+02     0.15150E-01       0.44171E-01     0.76844E-02   0.30968E-02  0.30968E-02
 0.16300E+02     0.15129E-01       0.44177E-01     0.77163E-02   0.31167E-02  0.31167E-02
 0.16400E+02     0.15108E-01       0.44183E-01     0.77478E-02   0.31366E-02  0.31366E-02
 0.16500E+02     0.15084E-01       0.44190E-01     0.77788E-02   0.31564E-02  0.31564E-02
 0.16600E+02     0.15061E-01       0.44196E-01     0.78096E-02   0.31763E-02  0.31763E-02
 0.16700E+02     0.15045E-01       0.44200E-01     0.78400E-02   0.31962E-02  0.31962E-02
 0.16800E+02     0.15028E-01       0.44206E-01     0.78700E-02   0.32160E-02  0.32160E-02
 0.16900E+02     0.15009E-01       0.44211E-01     0.79037E-02   0.32359E-02  0.32359E-02
 0.17000E+02     0.14990E-01       0.44216E-01     0.79370E-02   0.32558E-02  0.32558E-02
 0.17100E+02     0.14972E-01       0.44221E-01     0.79699E-02   0.32757E-02  0.32757E-02
 0.17200E+02     0.14954E-01       0.44226E-01     0.80024E-02   0.32956E-02  0.32956E-02
 0.17300E+02     0.14934E-01       0.44232E-01     0.80344E-02   0.33155E-02  0.33155E-02
 0.17400E+02     0.14916E-01       0.44237E-01     0.80660E-02   0.33354E-02  0.33354E-02
 0.17500E+02     0.14896E-01       0.44243E-01     0.80973E-02   0.33553E-02  0.33553E-02
 0.17600E+02     0.14879E-01       0.44248E-01     0.81281E-02   0.33752E-02  0.33752E-02
 0.17700E+02     0.14860E-01       0.44253E-01     0.81587E-02   0.33951E-02  0.33951E-02
 0.17800E+02     0.14843E-01       0.44258E-01     0.81889E-02   0.34150E-02  0.34150E-02
 0.17900E+02     0.14825E-01       0.44263E-01     0.82188E-02   0.34349E-02  0.34349E-02
 0.18000E+02     0.14804E-01       0.44269E-01     0.82484E-02   0.34548E-02  0.34548E-02
 0.18100E+02     0.14783E-01       0.44275E-01     0.82790E-02   0.34747E-02  0.34747E-02
 0.18200E+02     0.14763E-01       0.44280E-01     0.83119E-02   0.34946E-02  0.34946E-02
 0.18300E+02     0.14749E-01       0.44283E-01     0.83443E-02   0.35145E-02  0.35145E-02
 0.18400E+02     0.14734E-01       0.44288E-01     0.83764E-02   0.35345E-02  0.35345E-02
 0.18500E+02     0.14718E-01       0.44292E-01     0.84080E-02   0.35544E-02  0.35544E-02
 0.18600E+02     0.14703E-01       0.44297E-01     0.84393E-02   0.35743E-02  0.35743E-02
 0.18700E+02     0.14685E-01       0.44302E-01     0.84703E-02   0.35942E-02  0.35942E-02
 0.18800E+02     0.14669E-01       0.44306E-01     0.85009E-02   0.36142E-02  0.36142E-02
 0.18900E+02     0.14653E-01       0.44311E-01     0.85312E-02   0.36341E-02  0.36341E-02
 0.19000E+02     0.14636E-01       0.44316E-01     0.85612E-02   0.36540E-02  0.36540E-02
 0.19100E+02     0.14621E-01       0.44319E-01     0.85909E-02   0.36740E-02  0.36740E-02
 0.19200E+02     0.14604E-01       0.44325E-01     0.86203E-02   0.36939E-02  0.36939E-02
 0.19300E+02     0.14587E-01       0.44330E-01     0.86495E-02   0.37138E-02  0.37138E-02
 0.19400E+02     0.14571E-01       0.44333E-01     0.86783E-02   0.37338E-02  0.37338E-02
 0.19500E+02     0.14554E-01       0.44339E-01     0.87094E-02   0.37537E-02  0.37537E-02
 0.19600E+02     0.14540E-01       0.44342E-01     0.87414E-02   0.37737E-02  0.37737E-02
 0.19700E+02     0.14524E-01       0.44347E-01     0.87730E-02   0.37936E-02  0.37936E-02
 0.19800E+02     0.14507E-01       0.44352E-01     0.88043E-02   0.38136E-02  0.38136E-02
 0.19900E+02     0.14491E-01       0.44356E-01     0.88353E-02   0.38335E-02  0.38335E-02
 0.20000E+02     0.14474E-01       0.44361E-01     0.88659E-02   0.38535E-02  0.38535E-02
 0.20100E+02     0.14462E-01       0.44364E-01     0.88962E-02   0.38734E-02  0.38734E-02
 0.20200E+02     0.14450E-01       0.44368E-01     0.89263E-02   0.38934E-02  0.38934E-02
 0.20300E+02     0.14436E-01       0.44371E-01     0.89560E-02   0.39134E-02  0.39134E-02
 0.20400E+02     0.14422E-01       0.44376E-01     0.89855E-02   0.39333E-02  0.39333E-02
 0.20500E+02     0.14407E-01       0.44380E-01     0.90147E-02   0.39533E-02  0.39533E-02
 0.20600E+02     0.14391E-01       0.44385E-01     0.90436E-02   0.39733E-02  0.39733E-02
 0.20700E+02     0.14377E-01       0.44388E-01     0.90723E-02   0.39932E-02  0.39932E-02
 0.20800E+02     0.14364E-01       0.44392E-01     0.91008E-02   0.40132E-02  0.40132E-02
 0.20900E+02     0.14351E-01       0.44395E-01     0.91290E-02   0.40332E-02  0.40332E-02
 0.21000E+02     0.14338E-01       0.44400E-01     0.91600E-02   0.40532E-02  0.40532E-02
 0.21100E+02     0.14323E-01       0.44403E-01     0.91912E-02   0.40731E-02  0.40731E-02
 0.21200E+02     0.14309E-01       0.44408E-01     0.92221E-02   0.40931E-02  0.40931E-02
 0.21300E+02     0.14296E-01       0.44411E-01     0.92527E-02   0.41131E-02  0.41131E-02
 0.21400E+02     0.14283E-01       0.44415E-01     0.92830E-02   0.41331E-02  0.41331E-02
 0.21500E+02     0.14271E-01       0.44418E-01     0.93130E-02   0.41531E-02  0.41531E-02
 0.21600E+02     0.14259E-01       0.44422E-01     0.93428E-02   0.41731E-02  0.41731E-02
 0.21700E+02     0.14244E-01       0.44425E-01     0.93723E-02   0.41931E-02  0.41931E-02
 0.21800E+02     0.14229E-01       0.44430E-01     0.94015E-02   0.42131E-02  0.42131E-02
 0.21900E+02     0.14215E-01       0.44433E-01     0.94305E-02   0.42330E-02  0.42330E-02
 0.22000E+02     0.14200E-01       0.44438E-01     0.94592E-02   0.42530E-02  0.42530E-02
